Q(1/nm) DTAB200a_norm_minus_branco1_norm.dat 
1.3431242E-01 3.5351172E+07 
1.4240868E-01 3.2543394E+07 
1.5050495E-01 3.0440510E+07 
1.5860121E-01 2.9738202E+07 
1.6669747E-01 2.8879180E+07 
1.7479375E-01 2.8633544E+07 
1.8289001E-01 2.9237076E+07 
1.9098628E-01 2.9376686E+07 
1.9908255E-01 3.0170206E+07 
2.0717882E-01 3.1601284E+07 
2.1527508E-01 3.3526030E+07 
2.2337136E-01 3.6615144E+07 
2.3146760E-01 4.0103420E+07 
2.3956388E-01 4.4677028E+07 
2.4766015E-01 4.9790472E+07 
2.5575641E-01 5.6724740E+07 
2.6385269E-01 6.3783612E+07 
2.7194893E-01 6.9306504E+07 
2.8004521E-01 7.3819264E+07 
2.8814149E-01 7.4456752E+07 
2.9623777E-01 7.3665840E+07 
3.0433401E-01 6.8337024E+07 
3.1243026E-01 6.0405700E+07 
3.2052654E-01 5.0507064E+07 
3.2862282E-01 3.9791268E+07 
3.3671910E-01 3.1163936E+07 
3.4481534E-01 2.3479398E+07 
3.5291159E-01 1.8069094E+07 
3.6100787E-01 1.4102121E+07 
3.6910415E-01 1.1182187E+07 
3.7720042E-01 9.2382210E+06 
3.8529667E-01 7.7668475E+06 
3.9339295E-01 7.0038930E+06 
4.0148920E-01 6.2543325E+06 
4.0958548E-01 5.8284930E+06 
4.1768175E-01 5.6176855E+06 
4.2577800E-01 5.2475405E+06 
4.3387428E-01 5.1902025E+06 
4.4197056E-01 5.1455535E+06 
4.5006680E-01 5.0394575E+06 
4.5816308E-01 5.0508790E+06 
4.6625933E-01 5.0308435E+06 
4.7435561E-01 5.1023785E+06 
4.8245189E-01 5.2354765E+06 
4.9054813E-01 5.4036510E+06 
4.9864441E-01 5.5748065E+06 
5.0674069E-01 5.8102955E+06 
5.1483691E-01 5.9582735E+06 
5.2293324E-01 6.3303285E+06 
5.3102946E-01 6.6064345E+06 
5.3912574E-01 6.8153575E+06 
5.4722202E-01 7.1823245E+06 
5.5531824E-01 7.4658065E+06 
5.6341457E-01 7.7073735E+06 
5.7151079E-01 7.6345450E+06 
5.7960707E-01 7.6545040E+06 
5.8770335E-01 7.5179870E+06 
5.9579957E-01 7.2624735E+06 
6.0389590E-01 6.8393520E+06 
6.1199212E-01 6.2994275E+06 
6.2008840E-01 5.8883745E+06 
6.2818468E-01 5.3800390E+06 
6.3628095E-01 4.9102270E+06 
6.4437723E-01 4.3676215E+06 
6.5247345E-01 3.8194800E+06 
6.6056973E-01 3.5161785E+06 
6.6866601E-01 3.2209295E+06 
6.7676228E-01 2.9523635E+06 
6.8485856E-01 2.8251865E+06 
6.9295478E-01 2.6091078E+06 
7.0105106E-01 2.4365115E+06 
7.0914733E-01 2.3101392E+06 
7.1724361E-01 2.1863725E+06 
7.2533989E-01 2.1214645E+06 
7.3343617E-01 1.9551678E+06 
7.4153239E-01 2.0043014E+06 
7.4962866E-01 1.9749255E+06 
7.5772494E-01 1.9361332E+06 
7.6582122E-01 1.9306518E+06 
7.7391750E-01 1.8425730E+06 
7.8201371E-01 1.9367345E+06 
7.9010999E-01 1.9369121E+06 
7.9820627E-01 1.9292029E+06 
8.0630255E-01 1.9162625E+06 
8.1439883E-01 1.9334411E+06 
8.2249504E-01 2.0031665E+06 
8.3059132E-01 1.9355280E+06 
8.3868760E-01 1.9088689E+06 
8.4678388E-01 1.8950751E+06 
8.5488015E-01 1.8453958E+06 
8.6297643E-01 1.8671164E+06 
8.7107265E-01 1.8131728E+06 
8.7916893E-01 1.8001332E+06 
8.8726521E-01 1.8048331E+06 
8.9536148E-01 1.7515549E+06 
9.0345776E-01 1.6343509E+06 
9.1155398E-01 1.6752559E+06 
9.1965026E-01 1.6397546E+06 
9.2774653E-01 1.5653294E+06 
9.3584281E-01 1.5403038E+06 
9.4393909E-01 1.5062375E+06 
9.5203531E-01 1.4598450E+06 
9.6013159E-01 1.4451059E+06 
9.6822786E-01 1.3638996E+06 
9.7632414E-01 1.3175664E+06 
9.8442042E-01 1.2513758E+06 
9.9251670E-01 1.2784010E+06 
1.0006130E+00 1.2265850E+06 
1.0087092E+00 1.1939531E+06 
1.0168054E+00 1.2032778E+06 
1.0249017E+00 1.2197841E+06 
1.0329981E+00 1.1937671E+06 
1.0410943E+00 1.1854090E+06 
1.0491905E+00 1.2155524E+06 
1.0572867E+00 1.1317191E+06 
1.0653831E+00 1.1412974E+06 
1.0734794E+00 1.1946276E+06 
1.0815756E+00 1.1440082E+06 
1.0896719E+00 1.1351198E+06 
1.0977681E+00 1.1152691E+06 
1.1058644E+00 1.0892009E+06 
1.1139607E+00 1.1335392E+06 
1.1220570E+00 1.1718236E+06 
1.1301532E+00 1.0875985E+06 
1.1382495E+00 1.0881824E+06 
1.1463457E+00 1.1090408E+06 
1.1544420E+00 1.0654948E+06 
1.1625383E+00 1.0412474E+06 
1.1706345E+00 1.0493412E+06 
1.1787308E+00 1.0160321E+06 
1.1868271E+00 1.0473006E+06 
1.1949233E+00 1.0575835E+06 
1.2030196E+00 1.0607315E+06 
1.2111158E+00 1.0946445E+06 
1.2192122E+00 1.0529410E+06 
1.2273084E+00 1.0646339E+06 
1.2354046E+00 1.0536929E+06 
1.2435009E+00 1.0401038E+06 
1.2515972E+00 1.0137477E+06 
1.2596935E+00 1.0560276E+06 
1.2677897E+00 1.0523871E+06 
1.2758859E+00 1.0250449E+06 
1.2839823E+00 9.8546544E+05 
1.2920785E+00 9.9890056E+05 
1.3001748E+00 1.0168860E+06 
1.3082711E+00 1.0069134E+06 
1.3163674E+00 1.0258978E+06 
1.3244636E+00 1.0224269E+06 
1.3325598E+00 9.9954825E+05 
1.3406562E+00 1.0239541E+06 
1.3487524E+00 1.0561925E+06 
1.3568487E+00 1.0344477E+06 
1.3649449E+00 1.0416434E+06 
1.3730412E+00 1.0162399E+06 
1.3811375E+00 1.0333202E+06 
1.3892337E+00 1.0054621E+06 
1.3973300E+00 9.8539656E+05 
1.4054263E+00 1.0180186E+06 
1.4135225E+00 1.0527979E+06 
1.4216188E+00 1.0409474E+06 
1.4297150E+00 1.0380809E+06 
1.4378114E+00 1.0023099E+06 
1.4459076E+00 1.0222460E+06 
1.4540038E+00 1.0325741E+06 
1.4621001E+00 1.0156157E+06 
1.4701964E+00 1.0360170E+06 
1.4782927E+00 1.0372318E+06 
1.4863889E+00 1.0414880E+06 
1.4944851E+00 1.0133946E+06 
1.5025815E+00 1.0261022E+06 
1.5106777E+00 1.0259654E+06 
1.5187740E+00 1.0534534E+06 
1.5268703E+00 1.0299668E+06 
1.5349665E+00 1.0541308E+06 
1.5430628E+00 1.0698779E+06 
1.5511590E+00 1.0380822E+06 
1.5592554E+00 1.0312711E+06 
1.5673516E+00 1.0305106E+06 
1.5754479E+00 1.0284062E+06 
1.5835441E+00 1.0228887E+06 
1.5916404E+00 1.0266778E+06 
1.5997367E+00 1.0548170E+06 
1.6078329E+00 1.0301862E+06 
1.6159292E+00 1.0470810E+06 
1.6240255E+00 1.0635230E+06 
1.6321217E+00 1.0593662E+06 
1.6402180E+00 1.0349663E+06 
1.6483142E+00 1.0599168E+06 
1.6564106E+00 1.0502431E+06 
1.6645068E+00 1.0156697E+06 
1.6726030E+00 1.0680210E+06 
1.6806993E+00 1.0790395E+06 
1.6887956E+00 1.0470209E+06 
1.6968919E+00 1.0803830E+06 
1.7049881E+00 1.0384294E+06 
1.7130843E+00 1.0374029E+06 
1.7211807E+00 1.0502850E+06 
1.7292769E+00 1.0423431E+06 
1.7373732E+00 1.0687065E+06 
1.7454695E+00 1.0738852E+06 
1.7535657E+00 1.0533894E+06 
1.7616620E+00 1.0548976E+06 
1.7697582E+00 1.0363018E+06 
1.7778546E+00 1.0741492E+06 
1.7859508E+00 1.0894012E+06 
1.7940470E+00 1.0840314E+06 
1.8021433E+00 1.0768718E+06 
1.8102396E+00 1.0974049E+06 
1.8183359E+00 1.0754404E+06 
1.8264321E+00 1.0835870E+06 
1.8345284E+00 1.0621325E+06 
1.8426247E+00 1.0643461E+06 
1.8507209E+00 1.0841950E+06 
1.8588172E+00 1.1003685E+06 
1.8669134E+00 1.0604576E+06 
1.8750098E+00 1.0799495E+06 
1.8831060E+00 1.0849682E+06 
1.8912022E+00 1.0889561E+06 
1.8992985E+00 1.1099088E+06 
1.9073948E+00 1.1073172E+06 
1.9154911E+00 1.0699922E+06 
1.9235873E+00 1.0835091E+06 
1.9316835E+00 1.0578031E+06 
1.9397799E+00 1.0694812E+06 
1.9478761E+00 1.0674559E+06 
1.9559724E+00 1.0812794E+06 
1.9640687E+00 1.0889810E+06 
1.9721649E+00 1.0834390E+06 
1.9802612E+00 1.0848474E+06 
1.9883574E+00 1.0823750E+06 
1.9964538E+00 1.0755188E+06 
2.0045500E+00 1.0873831E+06 
2.0126462E+00 1.0543895E+06 
2.0207424E+00 1.0345578E+06 
2.0288386E+00 1.0871165E+06 
2.0369351E+00 1.1045156E+06 
2.0450313E+00 1.0741195E+06 
2.0531275E+00 1.0852094E+06 
2.0612240E+00 1.0903419E+06 
2.0693202E+00 1.1038250E+06 
2.0774164E+00 1.1288886E+06 
2.0855126E+00 1.1201888E+06 
2.0936089E+00 1.1083340E+06 
2.1017051E+00 1.1071048E+06 
2.1098013E+00 1.1043536E+06 
2.1178977E+00 1.0841304E+06 
2.1259940E+00 1.0759108E+06 
2.1340902E+00 1.0426506E+06 
2.1421864E+00 1.0614932E+06 
2.1502829E+00 1.0906800E+06 
2.1583791E+00 1.0919500E+06 
2.1664753E+00 1.0733604E+06 
2.1745715E+00 1.0583496E+06 
2.1826677E+00 1.0532792E+06 
2.1907642E+00 1.0725328E+06 
2.1988604E+00 1.0598645E+06 
2.2069566E+00 1.0722035E+06 
2.2150528E+00 1.1000025E+06 
2.2231493E+00 1.0866876E+06 
2.2312455E+00 1.0954228E+06 
2.2393417E+00 1.0954415E+06 
2.2474380E+00 1.1122978E+06 
2.2555342E+00 1.0950902E+06 
2.2636306E+00 1.0750651E+06 
2.2717268E+00 1.0758422E+06 
2.2798231E+00 1.0933126E+06 
2.2879193E+00 1.0687600E+06 
2.2960155E+00 1.0633166E+06 
2.3041120E+00 1.0881414E+06 
2.3122082E+00 1.0801381E+06 
2.3203044E+00 1.0571525E+06 
2.3284006E+00 1.0558674E+06 
2.3364968E+00 1.0662128E+06 
2.3445933E+00 1.1032920E+06 
2.3526895E+00 1.0871082E+06 
2.3607857E+00 1.0684862E+06 
2.3688819E+00 1.0523505E+06 
2.3769782E+00 1.0484117E+06 
2.3850746E+00 1.0779232E+06 
2.3931708E+00 1.0281525E+06 
2.4012671E+00 1.0720691E+06 
2.4093633E+00 1.0465849E+06 
2.4174595E+00 1.0693560E+06 
2.4255559E+00 1.0635680E+06 
2.4336522E+00 1.0820922E+06 
2.4417484E+00 1.0745739E+06 
2.4498446E+00 1.0632430E+06 
2.4579408E+00 1.0492170E+06 
2.4660373E+00 1.0532799E+06 
2.4741335E+00 1.0524976E+06 
2.4822297E+00 1.0347241E+06 
2.4903259E+00 1.0778461E+06 
2.4984221E+00 1.0920254E+06 
2.5065186E+00 1.0882089E+06 
2.5146148E+00 1.0407922E+06 
2.5227110E+00 1.0614314E+06 
2.5308073E+00 1.0324961E+06 
2.5389035E+00 1.0258582E+06 
2.5469999E+00 1.0228552E+06 
2.5550961E+00 1.0466914E+06 
2.5631924E+00 1.0173994E+06 
2.5712886E+00 1.0646825E+06 
2.5793848E+00 1.0063578E+06 
2.5874813E+00 1.0363981E+06 
2.5955775E+00 1.0537394E+06 
2.6036737E+00 1.0377495E+06 
2.6117699E+00 1.0664220E+06 
2.6198661E+00 1.0296524E+06 
2.6279626E+00 1.0242291E+06 
2.6360588E+00 1.0271482E+06 
2.6441550E+00 1.0311265E+06 
2.6522512E+00 1.0003693E+06 
2.6603475E+00 1.0179627E+06 
2.6684439E+00 1.0239730E+06 
2.6765401E+00 9.8384931E+05 
2.6846364E+00 1.0201229E+06 
2.6927326E+00 1.0538318E+06 
2.7008288E+00 1.0461643E+06 
2.7089252E+00 1.0329791E+06 
2.7170215E+00 1.0036029E+06 
2.7251177E+00 1.0543118E+06 
2.7332139E+00 1.0618780E+06 
2.7413104E+00 1.0391789E+06 
2.7494066E+00 1.0472441E+06 
2.7575028E+00 1.0243902E+06 
2.7655990E+00 1.0008406E+06 
2.7736952E+00 1.0298114E+06 
2.7817917E+00 1.0624769E+06 
2.7898879E+00 1.0252481E+06 
2.7979841E+00 1.0221692E+06 
2.8060803E+00 1.0075592E+06 
2.8141766E+00 1.0012396E+06 
2.8222730E+00 1.0657301E+06 
2.8303692E+00 1.0179563E+06 
2.8384655E+00 1.0511328E+06 
2.8465617E+00 1.0326211E+06 
2.8546579E+00 1.0541021E+06 
2.8627543E+00 1.0189155E+06 
2.8708506E+00 1.0221829E+06 
2.8789468E+00 9.9441831E+05 
2.8870430E+00 1.0012146E+06 
2.8951392E+00 9.9397762E+05 
2.9032357E+00 1.0178012E+06 
2.9113319E+00 1.0337068E+06 
2.9194281E+00 1.0092771E+06 
2.9275243E+00 1.0236707E+06 
2.9356205E+00 1.0043515E+06 
2.9437170E+00 9.8287006E+05 
2.9518132E+00 1.0286871E+06 
2.9599094E+00 1.0043131E+06 
2.9680057E+00 9.9121656E+05 
2.9761019E+00 9.6516950E+05 
2.9841983E+00 9.8693144E+05 
2.9922945E+00 1.0036563E+06 
3.0003908E+00 9.9380244E+05 
3.0084870E+00 1.0406196E+06 
3.0165832E+00 1.0101608E+06 
3.0246797E+00 1.0046832E+06 
3.0327759E+00 1.0020930E+06 
3.0408721E+00 9.7409006E+05 
3.0489683E+00 9.9845181E+05 
3.0570645E+00 1.0161829E+06 
3.0651610E+00 1.0070859E+06 
3.0732572E+00 1.0314276E+06 
3.0813534E+00 9.9629706E+05 
3.0894496E+00 9.5399819E+05 
3.0975459E+00 1.0009337E+06 
3.1056423E+00 9.8926912E+05 
3.1137385E+00 1.0063126E+06 
3.1218348E+00 1.0041863E+06 
3.1299310E+00 1.0161359E+06 
3.1380272E+00 9.8285975E+05 
3.1461236E+00 9.6369406E+05 
3.1542199E+00 1.0361306E+06 
3.1623161E+00 1.0180174E+06 
3.1704123E+00 9.8282200E+05 
3.1785085E+00 9.4938706E+05 
3.1866050E+00 9.5910938E+05 
3.1947012E+00 9.8086662E+05 
3.2027974E+00 9.4438831E+05 
3.2108936E+00 9.8406231E+05 
3.2189898E+00 9.5809675E+05 
3.2270863E+00 9.8015794E+05 
3.2351825E+00 9.9064606E+05 
3.2432787E+00 1.0245453E+06 
3.2513750E+00 1.0077081E+06 
3.2594714E+00 9.7193056E+05 
3.2675676E+00 9.6353025E+05 
3.2756639E+00 9.6526119E+05 
3.2837601E+00 9.8387731E+05 
3.2918563E+00 1.0015058E+06 
3.2999527E+00 9.8465406E+05 
3.3080490E+00 9.6105875E+05 
3.3161452E+00 1.0211963E+06 
3.3242414E+00 9.9358325E+05 
3.3323376E+00 9.4478244E+05 
3.3404341E+00 9.8017662E+05 
3.3485303E+00 9.7927369E+05 
3.3566265E+00 1.0136112E+06 
3.3647227E+00 9.8811938E+05 
3.3728189E+00 1.0195888E+06 
3.3809154E+00 1.0187653E+06 
3.3890116E+00 9.4945700E+05 
3.3971078E+00 9.4904325E+05 
3.4052041E+00 9.6882538E+05 
3.4133003E+00 9.7633250E+05 
3.4213967E+00 1.0166234E+06 
3.4294930E+00 1.0111788E+06 
3.4375892E+00 9.8312506E+05 
3.4456854E+00 9.8360462E+05 
3.4537816E+00 9.8840000E+05 
3.4618781E+00 1.0243008E+06 
3.4699743E+00 1.0120781E+06 
3.4780705E+00 9.9092862E+05 
3.4861667E+00 9.4098994E+05 
3.4942629E+00 9.3958312E+05 
3.5023594E+00 9.8430694E+05 
3.5104556E+00 1.0074638E+06 
3.5185518E+00 9.8022812E+05 
3.5266480E+00 9.8521094E+05 
3.5347443E+00 9.8930519E+05 
3.5428407E+00 1.0090546E+06 
3.5509369E+00 1.0050533E+06 
3.5590332E+00 1.0017374E+06 
3.5671294E+00 9.8037388E+05 
3.5752256E+00 9.6110769E+05 
3.5833220E+00 1.0120514E+06 
3.5914183E+00 9.9191231E+05 
3.5995145E+00 9.8537569E+05 
3.6076107E+00 9.6759794E+05 
3.6157069E+00 9.3042456E+05 
3.6238034E+00 9.7441194E+05 
3.6318996E+00 9.6883512E+05 
3.6399958E+00 9.9951375E+05 
3.6480920E+00 9.5842281E+05 
3.6561882E+00 9.4992469E+05 
3.6642847E+00 9.5538781E+05 
3.6723809E+00 9.3825044E+05 
3.6804771E+00 9.6854144E+05 
3.6885734E+00 9.9867462E+05 
3.6966696E+00 1.0033295E+06 
3.7047660E+00 9.5899812E+05 
3.7128623E+00 9.4784362E+05 
3.7209585E+00 9.4587706E+05 
3.7290547E+00 9.4194731E+05 
3.7371509E+00 9.2955481E+05 
3.7452474E+00 9.0320788E+05 
3.7533436E+00 9.3106206E+05 
3.7614398E+00 9.7832238E+05 
3.7695360E+00 9.4758056E+05 
3.7776325E+00 9.2659275E+05 
3.7857287E+00 9.7151731E+05 
3.7938249E+00 9.8150500E+05 
3.8019211E+00 9.5607275E+05 
3.8100173E+00 9.8354994E+05 
3.8181138E+00 9.5422231E+05 
3.8262100E+00 9.4295525E+05 
3.8343062E+00 9.8238631E+05 
3.8424025E+00 9.7921731E+05 
3.8504987E+00 9.5433888E+05 
3.8585951E+00 9.1931219E+05 
3.8666914E+00 9.6263219E+05 
3.8747876E+00 9.2042388E+05 
3.8828838E+00 9.7369344E+05 
3.8909800E+00 9.5076956E+05 
3.8990765E+00 9.1764450E+05 
3.9071727E+00 9.2757500E+05 
3.9152689E+00 9.4372662E+05 
3.9233651E+00 9.4732694E+05 
3.9314613E+00 9.8161650E+05 
3.9395578E+00 9.8410981E+05 
3.9476540E+00 9.4002050E+05 
3.9557502E+00 9.3447662E+05 
3.9638464E+00 8.9375644E+05 
3.9719427E+00 9.4584131E+05 
3.9800391E+00 9.4128775E+05 
3.9881353E+00 9.3834856E+05 
3.9962316E+00 1.0032280E+06 
4.0043278E+00 9.6220162E+05 
4.0124240E+00 9.5140394E+05 
4.0205202E+00 9.3259125E+05 
4.0286169E+00 9.4080675E+05 
4.0367126E+00 9.3759862E+05 
4.0448093E+00 9.4057225E+05 
4.0529051E+00 9.3364006E+05 
4.0610018E+00 9.4443681E+05 
4.0690980E+00 9.6213419E+05 
4.0771942E+00 9.3817569E+05 
4.0852904E+00 9.4386019E+05 
4.0933867E+00 9.5788319E+05 
4.1014833E+00 9.5758594E+05 
4.1095791E+00 9.2866119E+05 
4.1176758E+00 8.8601588E+05 
4.1257715E+00 8.9295369E+05 
4.1338682E+00 9.1632144E+05 
4.1419644E+00 9.0184100E+05 
4.1500607E+00 9.2644294E+05 
4.1581569E+00 9.3588869E+05 
4.1662531E+00 9.4641150E+05 
4.1743493E+00 9.3850044E+05 
4.1824455E+00 9.9734762E+05 
4.1905417E+00 9.1623881E+05 
4.1986384E+00 9.3673712E+05 
4.2067347E+00 9.4356369E+05 
4.2148309E+00 9.0993394E+05 
4.2229271E+00 9.4514694E+05 
4.2310233E+00 9.4448519E+05 
4.2391195E+00 9.1612594E+05 
4.2472157E+00 9.2807762E+05 
4.2553120E+00 9.4051244E+05 
4.2634082E+00 9.5542575E+05 
4.2715044E+00 9.5674406E+05 
4.2796011E+00 9.6117912E+05 
4.2876973E+00 9.5028000E+05 
4.2957935E+00 9.7629369E+05 
4.3038898E+00 1.0201885E+06 
4.3119860E+00 9.8924262E+05 
4.3200822E+00 9.5215569E+05 
4.3281784E+00 9.3233262E+05 
4.3362746E+00 9.8464606E+05 
4.3443708E+00 1.0102316E+06 
4.3524671E+00 9.5895612E+05 
4.3605638E+00 9.3257225E+05 
4.3686600E+00 9.9178162E+05 
4.3767562E+00 9.4847762E+05 
4.3848524E+00 9.4700638E+05 
4.3929486E+00 9.5234131E+05 
4.4010448E+00 1.0376942E+06 
4.4091411E+00 9.7535569E+05 
4.4172373E+00 9.9667681E+05 
4.4253335E+00 1.0033702E+06 
4.4334297E+00 9.6797794E+05 
4.4415264E+00 9.7700950E+05 
4.4496226E+00 9.2718044E+05 
4.4577188E+00 9.5504438E+05 
4.4658151E+00 9.5683731E+05 
4.4739113E+00 9.6808688E+05 
4.4820075E+00 9.8377088E+05 
4.4901037E+00 9.4039238E+05 
4.4981999E+00 9.7190162E+05 
4.5062962E+00 9.6437256E+05 
4.5143924E+00 1.0096252E+06 
4.5224891E+00 9.6196981E+05 
4.5305853E+00 9.8715344E+05 
4.5386815E+00 9.6392512E+05 
4.5467777E+00 9.5608881E+05 
4.5548739E+00 9.4586338E+05 
4.5629702E+00 9.9042894E+05 
4.5710664E+00 1.0010402E+06 
4.5791626E+00 9.4858619E+05 
4.5872588E+00 9.6644100E+05 
4.5953555E+00 9.7846175E+05 
4.6034517E+00 9.7359050E+05 
4.6115479E+00 9.8211725E+05 
4.6196442E+00 9.7908012E+05 
4.6277404E+00 9.3782131E+05 
4.6358366E+00 9.3418488E+05 
4.6439328E+00 9.3426488E+05 
4.6520290E+00 9.9312475E+05 
4.6601253E+00 9.5546350E+05 
4.6682215E+00 9.6631256E+05 
4.6763182E+00 9.7627988E+05 
4.6844144E+00 9.9108112E+05 
4.6925106E+00 1.0175716E+06 
4.7006068E+00 1.0264643E+06 
4.7087030E+00 1.0357590E+06 
4.7167993E+00 9.9193731E+05 
4.7248955E+00 9.7066106E+05 
4.7329917E+00 9.6401919E+05 
4.7410879E+00 1.0063269E+06 
4.7491841E+00 9.7471019E+05 
4.7572808E+00 1.0176152E+06 
4.7653770E+00 1.0601640E+06 
4.7734733E+00 1.0139670E+06 
4.7815695E+00 9.9770662E+05 
4.7896657E+00 9.9923738E+05 
4.7977619E+00 1.0124894E+06 
4.8058581E+00 9.8315388E+05 
4.8139544E+00 9.5360662E+05 
4.8220506E+00 1.0229296E+06 
4.8301468E+00 1.0431022E+06 
4.8382435E+00 1.0494292E+06 
4.8463397E+00 9.9795788E+05 
4.8544359E+00 1.0331860E+06 
4.8625321E+00 9.6754462E+05 
4.8706284E+00 9.8222356E+05 
4.8787246E+00 9.8917125E+05 
4.8868208E+00 9.7454950E+05 
4.8949170E+00 9.9596731E+05 
4.9030132E+00 1.0179448E+06 
4.9111094E+00 1.0029086E+06 
4.9192061E+00 9.9038719E+05 
4.9273024E+00 1.0228048E+06 
4.9353986E+00 1.0198683E+06 
4.9434948E+00 9.6163638E+05 
4.9515910E+00 9.1415450E+05 
4.9596872E+00 9.0737419E+05 
4.9677835E+00 8.9554138E+05 
4.9758797E+00 9.5404012E+05 
4.9839759E+00 9.7469262E+05 
4.9920721E+00 9.6041075E+05 
5.0001688E+00 1.1202748E+06 
5.0082650E+00 1.0590595E+06 
5.0163612E+00 1.1373659E+06 
5.0244575E+00 1.0301406E+06 
5.0325537E+00 1.0358088E+06 
5.0406499E+00 1.0237449E+06 
5.0487461E+00 1.2910280E+06 
5.0568423E+00 1.1759084E+06 
5.0649385E+00 9.0222069E+05 
